Feb. 6, 2025   17:35:06
Differential Pulse Voltammetry
File: iaa_7.8125um_mnge_gce_2_250206.bin
Data Source:  Experiment
Instrument Model:  CHI1040C
Header: 
Note: 

Init E (V) = 0.2
Final E (V) = 1
Incr E (V) = 0.002
Amplitude (V) = 0.025
Pulse Width (sec) = 0.05
Sample Width (sec) = 0.0167
Pulse Period (sec) = 0.5
Quiet Time (sec) = 2
Sensitivity (A/V) = 1e-6

Results:

Channel 1:
Ep = 0.698V
ip = -1.338e-6A
Ap = -2.077e-7VA

Potential/V, Current/A

0.202, -6.596e-7
0.204, -6.557e-7
0.206, -6.549e-7
0.208, -6.547e-7
0.210, -6.545e-7
0.212, -6.544e-7
0.214, -6.543e-7
0.216, -6.545e-7
0.218, -6.550e-7
0.220, -6.544e-7
0.222, -6.548e-7
0.224, -6.549e-7
0.226, -6.548e-7
0.228, -6.547e-7
0.230, -6.547e-7
0.232, -6.551e-7
0.234, -6.552e-7
0.236, -6.545e-7
0.238, -6.544e-7
0.240, -6.545e-7
0.242, -6.543e-7
0.244, -6.540e-7
0.246, -6.535e-7
0.248, -6.535e-7
0.250, -6.534e-7
0.252, -6.529e-7
0.254, -6.527e-7
0.256, -6.523e-7
0.258, -6.521e-7
0.260, -6.513e-7
0.262, -6.513e-7
0.264, -6.509e-7
0.266, -6.506e-7
0.268, -6.499e-7
0.270, -6.495e-7
0.272, -6.491e-7
0.274, -6.491e-7
0.276, -6.481e-7
0.278, -6.476e-7
0.280, -6.478e-7
0.282, -6.472e-7
0.284, -6.467e-7
0.286, -6.461e-7
0.288, -6.460e-7
0.290, -6.458e-7
0.292, -6.450e-7
0.294, -6.447e-7
0.296, -6.446e-7
0.298, -6.441e-7
0.300, -6.435e-7
0.302, -6.433e-7
0.304, -6.430e-7
0.306, -6.427e-7
0.308, -6.419e-7
0.310, -6.417e-7
0.312, -6.417e-7
0.314, -6.412e-7
0.316, -6.404e-7
0.318, -6.405e-7
0.320, -6.402e-7
0.322, -6.401e-7
0.324, -6.397e-7
0.326, -6.392e-7
0.328, -6.394e-7
0.330, -6.394e-7
0.332, -6.388e-7
0.334, -6.384e-7
0.336, -6.384e-7
0.338, -6.382e-7
0.340, -6.380e-7
0.342, -6.377e-7
0.344, -6.380e-7
0.346, -6.377e-7
0.348, -6.372e-7
0.350, -6.373e-7
0.352, -6.369e-7
0.354, -6.373e-7
0.356, -6.369e-7
0.358, -6.366e-7
0.360, -6.369e-7
0.362, -6.371e-7
0.364, -6.366e-7
0.366, -6.365e-7
0.368, -6.370e-7
0.370, -6.372e-7
0.372, -6.366e-7
0.374, -6.366e-7
0.376, -6.370e-7
0.378, -6.369e-7
0.380, -6.369e-7
0.382, -6.368e-7
0.384, -6.372e-7
0.386, -6.376e-7
0.388, -6.371e-7
0.390, -6.373e-7
0.392, -6.378e-7
0.394, -6.379e-7
0.396, -6.379e-7
0.398, -6.381e-7
0.400, -6.384e-7
0.402, -6.387e-7
0.404, -6.391e-7
0.406, -6.389e-7
0.408, -6.395e-7
0.410, -6.398e-7
0.412, -6.397e-7
0.414, -6.403e-7
0.416, -6.410e-7
0.418, -6.417e-7
0.420, -6.417e-7
0.422, -6.424e-7
0.424, -6.430e-7
0.426, -6.439e-7
0.428, -6.440e-7
0.430, -6.448e-7
0.432, -6.458e-7
0.434, -6.468e-7
0.436, -6.470e-7
0.438, -6.479e-7
0.440, -6.492e-7
0.442, -6.500e-7
0.444, -6.504e-7
0.446, -6.517e-7
0.448, -6.532e-7
0.450, -6.542e-7
0.452, -6.550e-7
0.454, -6.564e-7
0.456, -6.579e-7
0.458, -6.597e-7
0.460, -6.609e-7
0.462, -6.621e-7
0.464, -6.642e-7
0.466, -6.660e-7
0.468, -6.672e-7
0.470, -6.689e-7
0.472, -6.713e-7
0.474, -6.732e-7
0.476, -6.751e-7
0.478, -6.773e-7
0.480, -6.796e-7
0.482, -6.822e-7
0.484, -6.842e-7
0.486, -6.870e-7
0.488, -6.900e-7
0.490, -6.930e-7
0.492, -6.951e-7
0.494, -6.987e-7
0.496, -7.018e-7
0.498, -7.053e-7
0.500, -7.086e-7
0.502, -7.124e-7
0.504, -7.160e-7
0.506, -7.202e-7
0.508, -7.238e-7
0.510, -7.283e-7
0.512, -7.328e-7
0.514, -7.376e-7
0.516, -7.423e-7
0.518, -7.473e-7
0.520, -7.531e-7
0.522, -7.591e-7
0.524, -7.648e-7
0.526, -7.711e-7
0.528, -7.779e-7
0.530, -7.855e-7
0.532, -7.921e-7
0.534, -8.004e-7
0.536, -8.083e-7
0.538, -8.172e-7
0.540, -8.252e-7
0.542, -8.345e-7
0.544, -8.446e-7
0.546, -8.546e-7
0.548, -8.648e-7
0.550, -8.756e-7
0.552, -8.870e-7
0.554, -8.985e-7
0.556, -9.103e-7
0.558, -9.227e-7
0.560, -9.357e-7
0.562, -9.491e-7
0.564, -9.621e-7
0.566, -9.759e-7
0.568, -9.902e-7
0.570, -1.005e-6
0.572, -1.019e-6
0.574, -1.034e-6
0.576, -1.050e-6
0.578, -1.066e-6
0.580, -1.081e-6
0.582, -1.097e-6
0.584, -1.114e-6
0.586, -1.130e-6
0.588, -1.146e-6
0.590, -1.163e-6
0.592, -1.181e-6
0.594, -1.198e-6
0.596, -1.215e-6
0.598, -1.232e-6
0.600, -1.251e-6
0.602, -1.269e-6
0.604, -1.286e-6
0.606, -1.304e-6
0.608, -1.324e-6
0.610, -1.343e-6
0.612, -1.361e-6
0.614, -1.381e-6
0.616, -1.401e-6
0.618, -1.422e-6
0.620, -1.442e-6
0.622, -1.463e-6
0.624, -1.486e-6
0.626, -1.508e-6
0.628, -1.529e-6
0.630, -1.552e-6
0.632, -1.575e-6
0.634, -1.599e-6
0.636, -1.622e-6
0.638, -1.646e-6
0.640, -1.671e-6
0.642, -1.696e-6
0.644, -1.719e-6
0.646, -1.744e-6
0.648, -1.770e-6
0.650, -1.795e-6
0.652, -1.819e-6
0.654, -1.843e-6
0.656, -1.867e-6
0.658, -1.891e-6
0.660, -1.913e-6
0.662, -1.936e-6
0.664, -1.958e-6
0.666, -1.980e-6
0.668, -1.999e-6
0.670, -2.019e-6
0.672, -2.037e-6
0.674, -2.055e-6
0.676, -2.070e-6
0.678, -2.085e-6
0.680, -2.099e-6
0.682, -2.112e-6
0.684, -2.121e-6
0.686, -2.131e-6
0.688, -2.140e-6
0.690, -2.148e-6
0.692, -2.153e-6
0.694, -2.158e-6
0.696, -2.162e-6
0.698, -2.163e-6
0.700, -2.162e-6
0.702, -2.162e-6
0.704, -2.160e-6
0.706, -2.156e-6
0.708, -2.150e-6
0.710, -2.143e-6
0.712, -2.136e-6
0.714, -2.127e-6
0.716, -2.115e-6
0.718, -2.102e-6
0.720, -2.090e-6
0.722, -2.075e-6
0.724, -2.058e-6
0.726, -2.041e-6
0.728, -2.023e-6
0.730, -2.004e-6
0.732, -1.981e-6
0.734, -1.958e-6
0.736, -1.936e-6
0.738, -1.912e-6
0.740, -1.886e-6
0.742, -1.860e-6
0.744, -1.834e-6
0.746, -1.807e-6
0.748, -1.778e-6
0.750, -1.750e-6
0.752, -1.721e-6
0.754, -1.692e-6
0.756, -1.662e-6
0.758, -1.633e-6
0.760, -1.604e-6
0.762, -1.575e-6
0.764, -1.545e-6
0.766, -1.517e-6
0.768, -1.489e-6
0.770, -1.462e-6
0.772, -1.434e-6
0.774, -1.407e-6
0.776, -1.382e-6
0.778, -1.357e-6
0.780, -1.331e-6
0.782, -1.308e-6
0.784, -1.285e-6
0.786, -1.264e-6
0.788, -1.242e-6
0.790, -1.222e-6
0.792, -1.203e-6
0.794, -1.185e-6
0.796, -1.167e-6
0.798, -1.151e-6
0.800, -1.135e-6
0.802, -1.121e-6
0.804, -1.106e-6
0.806, -1.093e-6
0.808, -1.081e-6
0.810, -1.069e-6
0.812, -1.058e-6
0.814, -1.048e-6
0.816, -1.038e-6
0.818, -1.029e-6
0.820, -1.020e-6
0.822, -1.012e-6
0.824, -1.006e-6
0.826, -9.992e-7
0.828, -9.923e-7
0.830, -9.871e-7
0.832, -9.822e-7
0.834, -9.775e-7
0.836, -9.729e-7
0.838, -9.683e-7
0.840, -9.656e-7
0.842, -9.623e-7
0.844, -9.588e-7
0.846, -9.560e-7
0.848, -9.541e-7
0.850, -9.523e-7
0.852, -9.501e-7
0.854, -9.486e-7
0.856, -9.476e-7
0.858, -9.470e-7
0.860, -9.450e-7
0.862, -9.446e-7
0.864, -9.444e-7
0.866, -9.441e-7
0.868, -9.435e-7
0.870, -9.434e-7
0.872, -9.437e-7
0.874, -9.443e-7
0.876, -9.436e-7
0.878, -9.444e-7
0.880, -9.451e-7
0.882, -9.461e-7
0.884, -9.462e-7
0.886, -9.471e-7
0.888, -9.485e-7
0.890, -9.497e-7
0.892, -9.504e-7
0.894, -9.517e-7
0.896, -9.532e-7
0.898, -9.550e-7
0.900, -9.561e-7
0.902, -9.575e-7
0.904, -9.597e-7
0.906, -9.615e-7
0.908, -9.624e-7
0.910, -9.640e-7
0.912, -9.665e-7
0.914, -9.682e-7
0.916, -9.694e-7
0.918, -9.718e-7
0.920, -9.740e-7
0.922, -9.760e-7
0.924, -9.779e-7
0.926, -9.802e-7
0.928, -9.828e-7
0.930, -9.850e-7
0.932, -9.871e-7
0.934, -9.896e-7
0.936, -9.926e-7
0.938, -9.950e-7
0.940, -9.974e-7
0.942, -1.000e-6
0.944, -1.004e-6
0.946, -1.006e-6
0.948, -1.009e-6
0.950, -1.012e-6
0.952, -1.015e-6
0.954, -1.018e-6
0.956, -1.021e-6
0.958, -1.024e-6
0.960, -1.028e-6
0.962, -1.032e-6
0.964, -1.035e-6
0.966, -1.038e-6
0.968, -1.042e-6
0.970, -1.046e-6
0.972, -1.050e-6
0.974, -1.054e-6
0.976, -1.058e-6
0.978, -1.062e-6
0.980, -1.066e-6
0.982, -1.070e-6
0.984, -1.075e-6
0.986, -1.080e-6
0.988, -1.083e-6
0.990, -1.088e-6
0.992, -1.093e-6
0.994, -1.098e-6
0.996, -1.102e-6
0.998, -1.107e-6
1.000, -1.112e-6
